-0.08
-0.07
-0.075
-0.08
-0.065
-0.055
-0.06
-0.065
-0.065
-0.065
-0.065
-0.065
-0.065
-0.06
-0.055
-0.045
-0.035
-0.025
-0.025
-0.025
-0.025
-0.02
-0.01
-0.01
-0.01
0.0
0.02
0.035
0.05
0.065
0.08
0.085
0.085
0.1
0.125
0.13
0.13
0.155
0.185
0.185
0.185
0.2
0.22
0.22
0.22
0.22
0.22
0.205
0.19
0.185
0.18
0.155
0.125
0.09
0.065
0.055
0.035
0.005
-0.015
-0.02
-0.03
-0.045
-0.055
-0.055
-0.065
-0.075
-0.085
-0.085
-0.085
-0.095
-0.1
-0.1
-0.1
-0.1
-0.095
-0.095
-0.095
-0.095
-0.095
-0.1
-0.105
-0.105
-0.095
-0.09
-0.08
-0.075
-0.075
-0.07
-0.07
-0.07
-0.07
-0.07
-0.06
-0.05
-0.05
-0.045
-0.045
-0.045
-0.045
-0.05
-0.05
-0.055
-0.065
-0.065
-0.05
-0.045
-0.045
-0.04
-0.03
-0.035
-0.045
-0.05
-0.06
-0.06
-0.055
-0.05
-0.05
-0.045
-0.045
-0.045
-0.05
-0.035
-0.015
-0.035
-0.06
-0.04
-0.02
-0.04
-0.065
-0.065
-0.065
-0.105
-0.135
-0.1
-0.075
-0.09
-0.1
-0.075
-0.07
-0.09
-0.11
-0.115
-0.12
-0.125
-0.125
-0.115
-0.12
-0.13
-0.13
-0.115
-0.11
-0.115
-0.12
-0.12
-0.115
-0.115
-0.115
-0.115
-0.11
-0.105
-0.095
-0.085
-0.065
-0.05
0.03
0.125
0.17
0.21
0.095
-0.015
-0.17
-0.315
-0.345
-0.355
-0.27
-0.185
-0.125
-0.08
-0.115
-0.145
-0.145
-0.145
-0.135
-0.125
-0.11
-0.1
-0.1
-0.095
-0.085
-0.09
-0.1
-0.09
-0.07
-0.075
-0.1
-0.1
-0.085
-0.085
-0.085
-0.08
-0.07
-0.075
-0.08
-0.07
-0.055
-0.05
-0.05
-0.06
-0.07
-0.05
-0.03
-0.045
-0.06
-0.025
0.0
-0.005
-0.01
0.005
0.015
0.015
0.02
0.04
0.06
0.06
0.075
0.105
0.13
0.13
0.14
0.16
0.17
0.17
0.175
0.175
0.185
0.2
0.21
0.21
0.2
0.185
0.165
0.14
0.115
0.095
0.065
0.03
0.02
0.02
0.0
-0.015
-0.035
-0.06
-0.065
-0.075
-0.085
-0.095
-0.095
-0.09
-0.09
-0.09
-0.095
-0.1
-0.1
-0.1
-0.1
-0.1
-0.105
-0.105
-0.095
-0.09
-0.08
-0.075
-0.085
-0.085
-0.085
-0.085
-0.085
-0.08
-0.065
-0.05
-0.045
-0.045
-0.045
-0.045
-0.045
-0.04
-0.035
-0.04
-0.05
-0.04
-0.03
-0.035
-0.04
-0.035
-0.035
-0.04
-0.045
-0.045
-0.05
-0.055
-0.055
-0.035
-0.025
-0.045
-0.06
-0.06
-0.06
-0.065
-0.07
-0.085
-0.08
-0.055
-0.045
-0.045
-0.04
-0.03
-0.03
-0.04
-0.04
-0.03
-0.04
-0.06
-0.065
-0.06
-0.075
-0.095
-0.09
-0.075
-0.08
-0.085
-0.09
-0.09
-0.095
-0.095
-0.1
-0.1
-0.1
-0.1
-0.095
-0.095
-0.1
-0.105
-0.1
-0.1
-0.1
-0.105
-0.105
-0.105
-0.11
-0.11
-0.11
-0.115
-0.125
-0.115
-0.07
-0.01
0.07
0.135
0.185
0.135
0.015
-0.135
-0.305
-0.385
-0.42
-0.35
-0.235
-0.16
-0.095
-0.115
-0.15
-0.15
-0.145
-0.14
-0.14
-0.1
-0.06
-0.07
-0.08
-0.065
-0.05
-0.065
-0.08
-0.06
-0.05
-0.07
-0.075
-0.05
-0.035
-0.05
-0.055
-0.05
-0.045
-0.045
-0.045
-0.045
-0.04
-0.02
-0.01
-0.01
-0.005
0.0
0.005
0.005
0.01
0.015
0.03
0.05
0.065
0.08
0.09
0.1
0.12
0.135
0.14
0.145
0.17
0.195
0.215
0.23
0.24
0.255
0.255
0.26
0.28
0.295
0.285
0.275
0.295
0.3
0.28
0.255
0.235
0.215
0.19
0.155
0.12
0.1
0.1
0.085
0.045
0.025
0.025
0.01
0.0
-0.01
-0.01
-0.025
-0.04
-0.035
-0.02
-0.03
-0.04
-0.045
-0.045
-0.04
-0.035
-0.035
-0.035
-0.02
-0.01
-0.02
-0.025
-0.02
-0.015
-0.015
-0.01
-0.01
-0.005
-0.005
0.0
0.005
0.01
0.005
0.005
0.01
0.01
0.01
0.01
0.015
0.015
0.015
0.015
0.02
0.015
0.005
0.0
0.0
-0.005
-0.005
0.0
0.0
0.0
0.0
0.0
-0.005
-0.01
-0.01
-0.015
-0.025
-0.02
-0.01
-0.015
-0.02
-0.01
-0.005
-0.005
-0.005
-0.01
-0.01
-0.01
-0.005
0.0
0.0
-0.005
-0.02
-0.05
-0.07
-0.07
-0.065
-0.065
-0.05
-0.025
-0.025
-0.05
-0.07
-0.08
-0.085
-0.085
-0.09
-0.095
-0.085
-0.065
-0.07
-0.09
-0.085
-0.075
-0.075
-0.075
-0.08
-0.09
-0.095
-0.095
-0.08
-0.065
-0.06
-0.05
0.0
0.06
0.145
0.215
0.19
0.135
0.0
-0.14
-0.265
-0.34
-0.315
-0.265
-0.165
-0.095
-0.07
-0.065
-0.085
-0.095
-0.095
-0.09
-0.085
-0.08
-0.07
-0.065
-0.065
-0.06
-0.055
-0.05
-0.045
-0.045
-0.05
-0.055
-0.055
-0.055
-0.06
-0.055
-0.045
-0.04
-0.035
-0.035
-0.035
-0.04
-0.04
-0.035
-0.035
-0.035
-0.03
-0.015
0.0
0.0
0.0
0.0
0.005
0.015
0.02
0.02
0.025
0.045
0.06
0.075
0.09
0.11
0.115
0.115
0.13
0.16
0.17
0.17
0.185
0.205
0.21
0.21
0.21
0.21
0.21
0.21
0.195
0.175
0.165
0.16
0.14
0.125
0.1
0.07
0.04
0.015
0.015
0.01
-0.015
-0.03
-0.02
-0.015
-0.03
-0.045
-0.045
-0.045
-0.055
-0.055
-0.055
-0.055
-0.065
-0.065
-0.055
-0.055
-0.06
-0.06
-0.055
-0.055
-0.055
-0.055
-0.055
-0.05
-0.045
-0.045
-0.045
-0.035
-0.03
-0.005
0.01
0.015
0.02
0.04
0.06
0.075
0.085
0.075
0.065
0.045
0.03
0.025
0.015
0.0
-0.02
-0.025
-0.03
-0.03
-0.035
-0.045
-0.055
-0.06
-0.07
-0.08
-0.085
-0.075
-0.07
-0.07
-0.07
-0.07
-0.07
-0.07
-0.075
-0.075
-0.075
-0.08
-0.085
-0.085
-0.08
-0.075
-0.025
0.025
0.12
0.225
0.22
0.205
0.03
-0.135
-0.225
-0.3
-0.275
-0.24
-0.125
-0.03
-0.025
-0.03
-0.055
-0.08
-0.115
-0.125
-0.095
-0.08
-0.095
-0.095
-0.075
-0.065
-0.065
-0.07
-0.07
-0.07
-0.07
-0.06
-0.05
-0.055
-0.07
-0.075
-0.075
-0.065
-0.06
-0.06
-0.06
-0.055
-0.05
-0.045
-0.045
-0.03
-0.015
-0.015
-0.02
-0.03
-0.04
-0.03
-0.02
0.0
0.02
0.025
0.03
0.04
0.05
0.055
0.07
0.09
0.105
0.11
0.12
0.14
0.155
0.165
0.17
0.18
0.185
0.19
0.19
0.19
0.18
0.175
0.17
0.17
0.145
0.115
0.09
0.07
0.05
0.03
0.005
-0.01
-0.015
-0.015
-0.025
-0.035
-0.04
-0.05
-0.055
-0.065
-0.065
-0.07
-0.075
-0.08
-0.065
-0.06
-0.06
-0.065
-0.07
-0.07
-0.07
-0.07
-0.07
-0.07
-0.07
-0.06
-0.05
-0.045
-0.045
-0.045
-0.045
-0.035
-0.025
-0.025
-0.03
-0.04
-0.05
-0.04
-0.02
-0.025
-0.03
-0.03
-0.025
-0.03
-0.04
-0.04
-0.035
-0.04
-0.045
-0.035
-0.03
-0.045
-0.055
-0.05
-0.045
-0.05
-0.06
-0.065
-0.07
-0.08
-0.08
-0.065
-0.05
-0.035
-0.015
-0.005
0.0
0.005
0.0
-0.005
-0.01
-0.015
-0.02
-0.02
-0.03
-0.045
-0.065
-0.09
-0.09
-0.075
-0.095
-0.125
-0.11
-0.095
-0.1
-0.105
-0.1
-0.095
-0.1
-0.1
-0.1
-0.1
-0.105
-0.105
-0.1
-0.095
-0.095
-0.095
-0.09
-0.07
-0.025
0.03
0.12
0.175
0.18
0.135
0.02
-0.095
-0.235
-0.305
-0.31
-0.26
-0.165
-0.11
-0.08
-0.08
-0.1
-0.11
-0.115
-0.115
-0.115
-0.1
-0.085
-0.085
-0.085
-0.085
-0.09
-0.09
-0.085
-0.075
-0.07
-0.07
-0.07
-0.07
-0.07
-0.07
-0.07
-0.07
-0.065
-0.06
-0.05
-0.05
-0.045
-0.045
-0.04
-0.035
-0.035
-0.035
-0.03
-0.03
-0.02
-0.005
0.0
0.005
0.01
0.02
0.03
0.045
0.055
0.06
0.075
0.09
0.105
0.125
0.135
0.14
0.155
0.17
0.185
0.195
0.19
0.185
0.19
0.2
0.21
0.215
0.195
0.175
0.155
0.14
0.12
0.1
0.08
0.055
0.03
0.015
0.02
0.015
0.0
-0.01
-0.02
-0.03
-0.045
-0.05
-0.06
-0.06
-0.05
-0.05
-0.05
-0.05
-0.045
-0.055
-0.07
-0.055
-0.035
-0.055
-0.085
-0.06
-0.03
-0.035
-0.045
-0.035
-0.02
-0.04
-0.055
-0.04
-0.025
-0.04
-0.055
-0.03
-0.01
-0.015
-0.015
-0.01
-0.01
-0.01
-0.005
0.0
0.0
-0.01
-0.01
0.0
0.0
-0.005
-0.005
-0.005
-0.005
-0.015
-0.02
-0.02
-0.03
-0.04
-0.035
-0.02
-0.03
-0.05
-0.04
-0.02
-0.005
0.0
0.01
0.02
0.02
0.015
0.015
0.01
0.0
-0.015
-0.015
-0.015
-0.035
-0.055
-0.065
-0.075
-0.085
-0.09
-0.08
-0.075
-0.085
-0.09
-0.09
-0.095
-0.1
-0.105
-0.105
-0.1
-0.1
-0.095
-0.095
-0.095
-0.1
-0.1
-0.1
-0.08
-0.06
-0.005
0.05
0.12
0.195
0.165
0.115
-0.01
-0.145
-0.245
-0.34
-0.295
-0.24
-0.15
-0.065
-0.065
-0.07
-0.095
-0.12
-0.125
-0.125
-0.105
-0.09
-0.09
-0.085
-0.075
-0.065
-0.065
-0.06
-0.06
-0.06
-0.07
-0.07
-0.06
-0.065
-0.08
-0.07
-0.04
-0.035
-0.045
-0.04
-0.03
-0.035
-0.05
-0.04
-0.02
-0.02
-0.02
-0.005
0.01
0.0
-0.005
0.005
0.025
0.02
0.02
0.035
0.05
0.05
0.05
0.085
0.115
0.115
0.12
0.13
0.145
0.165
0.18
0.18
0.19
0.205
0.215
0.215
0.22
0.22
0.21
0.2
0.185
0.175
0.15
0.12
0.105
0.1
0.075
0.04
0.02
0.0
-0.01
-0.02
-0.035
-0.045
-0.05
-0.055
-0.06
-0.06
-0.065
-0.07
-0.07
-0.075
-0.075
-0.075
-0.08
-0.085
-0.085
-0.08
-0.075
-0.075
-0.075
-0.07
-0.07
-0.07
-0.07
-0.075
-0.08
-0.075
-0.055
-0.05
-0.05
-0.05
-0.05
-0.045
-0.045
-0.045
-0.045
-0.05
-0.05
-0.04
-0.035
-0.035
-0.035
-0.035
-0.035
-0.025
-0.015
-0.03
-0.05
-0.035
-0.02
-0.035
-0.045
-0.035
-0.025
-0.045
-0.06
-0.04
-0.035
-0.075
-0.095
-0.06
-0.03
-0.025
-0.01
0.01
0.02
0.01
0.0
0.0
-0.005
-0.025
-0.025
-0.015
-0.02
-0.035
-0.05
-0.065
-0.07
-0.07
-0.085
-0.11
-0.11
-0.095
-0.1
-0.105
-0.1
-0.095
-0.1
-0.105
-0.105
-0.1
-0.105
-0.105
-0.1
-0.095
-0.1
-0.1
-0.09
-0.075
-0.02
0.03
0.11
0.165
0.155
0.105
-0.03
-0.16
-0.29
-0.35
-0.325
-0.27
-0.175
-0.12
-0.095
-0.095
-0.11
-0.12
-0.125
-0.12
-0.105
-0.09
-0.07
-0.075
-0.08
-0.07
-0.05
-0.05
-0.055
-0.06
-0.065
-0.07
-0.07
-0.07
-0.07
-0.065
-0.06
-0.06
-0.055
-0.05
-0.05
-0.05
-0.05
-0.04
-0.035
-0.05
-0.055
-0.03
-0.01
0.0
0.0
0.0
0.005
0.005
0.01
0.01
0.025
0.05
0.07
0.095
0.105
0.115
0.13
0.15
0.17
0.19
0.19
0.18
0.205
0.235
0.235
0.23
0.235
0.24
0.235
0.225
0.21
0.19
0.175
0.155
0.145
0.13
0.105
0.08
0.045
0.02
0.02
0.005
-0.025
-0.045
-0.03
-0.025
-0.035
-0.045
-0.045
-0.05
-0.06
-0.07
-0.07
-0.07
-0.07
-0.06
-0.045
-0.05
-0.055
-0.06
-0.06
-0.06
-0.065
-0.06
-0.05
-0.035
-0.02
-0.075
-0.135
-0.2
-0.27
-0.37
-0.475
-0.605
-0.73
-0.835
-0.945
-1.08
-1.225
-1.385
-1.53
-1.605
-1.645
-1.595
-1.5
-1.32
-1.12
-0.895
-0.705
-0.55
-0.425
-0.34
-0.265
-0.205
-0.17
-0.16
-0.145
-0.12
-0.11
-0.11
-0.085
-0.055
-0.025
0.0
0.025
0.045
0.05
0.05
0.06
0.07
0.075
0.08
0.095
0.105
0.125
0.145
0.16
0.175
0.205
0.23
0.26
0.29
0.335
0.375
0.405
0.435
0.47
0.505
0.545
0.59
0.655
0.705
0.745
0.78
0.81
0.835
0.86
0.88
0.9
0.895
0.875
0.86
0.855
0.82
0.78
0.745
0.705
0.655
0.605
0.56
0.52
0.475
0.435
0.41
0.385
0.345
0.3
0.27
0.24
0.21
0.185
0.165
0.145
0.14
0.135
0.135
0.13
0.12
0.11
0.1
0.1
0.1
0.095
0.085
0.085
0.1
0.095
0.085
0.085
0.085
0.08
0.07
0.075
0.08
0.07
0.055
0.065
0.08
0.07
0.055
0.065
0.08
0.065
0.045
0.05
0.06
0.025
0.0
0.025
0.05
0.025
0.01
0.02
0.025
0.005
-0.005
-0.005
-0.005
-0.02
-0.02
0.0
0.01
0.0
-0.01
-0.01
-0.01
-0.02
-0.02
-0.02
-0.02
-0.03
-0.025
-0.015
-0.025
-0.04
-0.045
-0.045
-0.045
-0.045
-0.04
-0.035
-0.04
-0.05
-0.04
-0.03
-0.035
-0.045
-0.055
-0.06
-0.06
-0.06
-0.06
-0.06
-0.06
-0.06
-0.05
-0.045
-0.045
-0.05
-0.055
-0.06
-0.06
-0.06
-0.06
-0.06
-0.07
-0.07
-0.065
-0.06
-0.06
-0.06
-0.06
-0.06
-0.065
-0.07
-0.07
-0.075
-0.08
-0.07
-0.055
-0.06
-0.065
-0.065
-0.06
-0.06
-0.065
-0.065
-0.06
-0.08
-0.1
-0.08
-0.06
-0.075
-0.09
-0.08
-0.065
-0.065
-0.065
-0.065
-0.07
-0.08
-0.075
-0.04
-0.015
-0.01
-0.005
0.0
0.0
0.0
-0.005
-0.015
-0.025
-0.04
-0.04
-0.025
-0.03
-0.055
-0.07
-0.085
-0.09
-0.09
-0.095
-0.1
-0.105
-0.11
-0.105
-0.095
-0.095
-0.095
-0.095
-0.095
-0.095
-0.09
-0.09
-0.085
-0.075
-0.055
0.01
0.085
0.145
0.18
0.115
0.03
-0.125
-0.26
-0.355
-0.4
-0.35
-0.285
-0.195
-0.145
-0.135
-0.145
-0.165
-0.17
-0.16
-0.135
-0.11
-0.105
-0.11
-0.095
-0.07
-0.07
-0.085
-0.08
-0.07
-0.07
-0.07
-0.07
-0.07
-0.075
-0.085
-0.065
-0.045
-0.055
-0.065
-0.065
-0.065
-0.075
-0.085
-0.075
-0.065
-0.065
-0.055
-0.025
-0.01
-0.02
-0.02
-0.01
-0.005
-0.005
0.0
0.005
0.015
0.015
0.02
0.035
0.045
0.05
0.06
0.08
0.085
0.09
0.095
0.095
0.095
0.095
0.11
0.125
0.13
0.13
0.135
0.135
0.135
0.135
0.12
0.105
0.1
0.09
0.085
0.08
0.065
0.05
0.035
0.025
0.005
-0.005
-0.02
-0.03
-0.045
-0.05
-0.05
-0.05
-0.06
-0.065
-0.07
-0.075
-0.075
-0.07
-0.07
-0.075
-0.085
-0.075
-0.055
-0.055
-0.065
-0.05
-0.03
-0.04
-0.05
-0.035
-0.015
-0.03
-0.05
-0.02
0.015
0.0
0.0
0.01
0.02
0.005
0.0
0.005
0.01
0.005
0.005
0.025
0.04
0.025
0.015
0.015
0.015
0.0
-0.005
-0.005
-0.01
-0.025
-0.025
-0.01
-0.005
-0.015
-0.03
-0.045
-0.05
-0.045
-0.03
-0.01
0.0
0.005
0.015
0.02
0.02
0.015
0.0
-0.02
-0.025
-0.025
-0.035
-0.045
-0.06
-0.075
-0.08
-0.09
-0.09
-0.095
-0.095
-0.095
-0.105
-0.115
-0.115
-0.115
-0.115
-0.12
-0.12
-0.12
-0.12
-0.115
-0.11
-0.11
-0.115
-0.115
-0.115
-0.08
-0.025
0.045
0.13
0.135
0.095
-0.025
-0.185
-0.305
-0.41
-0.395
-0.355
-0.275
-0.195
-0.16
-0.13
-0.15
-0.175
-0.16
-0.14
-0.13
-0.115
-0.105
-0.1
-0.1
-0.095
-0.08
-0.065
-0.06
-0.06
-0.065
-0.07
-0.08
-0.075
-0.06
-0.055
-0.065
-0.065
-0.05
-0.045
-0.055
-0.05
-0.035
-0.035
-0.05
-0.035
-0.015
-0.02
-0.045
-0.015
0.02
0.015
0.0
0.02
0.05
0.05
0.045
0.065
0.095
0.09
0.09
0.125
0.16
0.165
0.175
0.185
0.2
0.215
0.225
0.23
0.23
0.23
0.235
0.25
0.255
0.245
0.23
0.215
0.195
0.16
0.135
0.115
0.095
0.075
0.065
0.055
0.04
0.02
0.005
0.0
-0.005
-0.02
-0.025
-0.025
-0.035
-0.045
-0.04
-0.03
-0.03
-0.03
-0.03
-0.03
-0.035
-0.045
-0.045
-0.045
-0.045
-0.04
-0.025
-0.015
-0.02
-0.02
-0.01
0.0
0.0
0.0
-0.005
-0.005
-0.005
0.0
0.0
0.005
0.005
0.005
0.005
0.0
0.0
0.0
0.0
0.0
0.0
-0.005
-0.01
-0.01
-0.01
-0.015
-0.02
-0.015
-0.005
-0.005
-0.01
-0.015
-0.02
-0.025
-0.03
-0.005
0.02
0.035
0.055
0.055
0.05
0.035
0.025
0.025
0.02
0.015
0.01
0.0
-0.01
-0.04
-0.075
-0.11
-0.145
-0.175
-0.17
-0.125
-0.105
-0.1
-0.09
-0.075
-0.065
-0.06
-0.085
-0.12
-0.11
-0.09
-0.095
-0.1
-0.085
-0.065
-0.06
-0.055
-0.01
0.03
0.095
0.16
0.165
0.155
0.0
-0.14
-0.24
-0.32
-0.325
-0.31
-0.205
-0.125
-0.095
-0.08
-0.095
-0.105
-0.1
-0.09
-0.075
-0.07
-0.07
-0.06
-0.05
-0.04
-0.03
-0.03
-0.03
-0.03
-0.03
-0.03
-0.025
-0.04
-0.065
-0.065
-0.06
-0.08
-0.105
-0.14
-0.18
-0.16
-0.14
-0.11
-0.08
-0.065
-0.05
-0.02
0.0
0.005
0.01
0.005
0.0
0.005
0.01
0.0
0.025
0.15
0.215
0.185
0.165
0.16
0.155
0.155
0.155
0.155
0.17
0.19
0.205
0.215
0.2
0.175
0.175
0.19
0.215
0.25
0.24
0.215
0.205
0.2
0.175
0.145
0.135
0.13
0.1
0.07
0.05
0.03
0.025
0.025
0.025
0.03
0.035
0.035
0.01
-0.01
-0.01
-0.015
-0.025
-0.035
-0.045
-0.045
-0.03
-0.025
-0.025
-0.03
-0.045
-0.04
-0.02
-0.015
-0.015
-0.015
-0.015
-0.01
-0.005
0.0
0.01
0.015
0.015
0.01
0.01
0.01
0.01
0.025
0.04
0.035
0.025
-0.005
-0.03
-0.01
0.01
0.01
0.005
0.0
-0.005
-0.005
-0.005
-0.005
0.0
0.0
0.0
0.01
0.02
0.035
0.065
0.105
0.11
0.07
0.04
0.02
0.025
0.045
0.055
0.065
0.035
-0.005
-0.015
-0.015
0.0
0.01
0.015
0.015
-0.01
-0.045
-0.055
-0.06
-0.05
-0.035
-0.025
-0.02
-0.025
-0.025
-0.025
-0.02
-0.005
0.0
-0.025
-0.04
-0.03
-0.005
0.06
0.14
0.24
0.28
0.21
0.115
-0.015
-0.13
-0.21
-0.23
-0.19
-0.125
-0.04
-0.005
-0.005
-0.025
-0.06
-0.065
-0.055
-0.04
-0.025
-0.025
-0.025
-0.025
-0.025
-0.025
-0.025
-0.02
-0.02
-0.025
-0.03
-0.02
-0.005
-0.005
0.0
0.0
0.0
-0.005
-0.01
-0.01
-0.01
-0.01
-0.01
-0.005
0.0
0.005
0.01
0.01
0.015
0.025
0.025
0.015
0.025
0.045
0.05
0.05
0.06
0.085
0.095
0.1
0.115
0.135
0.135
0.135
0.155
0.185
0.195
0.205
0.21
0.21
0.22
0.235
0.215
0.2
0.205
0.21
0.195
0.18
0.175
0.16
0.135
0.11
0.1
0.085
0.06
0.045
0.05
0.045
0.03
0.015
0.005
0.0
0.0
0.0
0.0
0.0
0.0
0.0
0.005
0.005
0.005
0.0
-0.005
-0.01
-0.015
-0.01
-0.005
0.0
0.0
0.005
0.01
0.01
0.005
0.005
0.0
0.0
-0.005
0.005
0.015
0.015
0.015
0.015
0.015
0.015
0.01
0.01
0.01
0.015
0.015
0.005
0.005
0.015
0.015
0.0
0.0
0.01
0.0
-0.035
-0.03
0.01
0.02
0.02
0.04
0.08
0.08
0.075
0.075
0.075
0.055
0.035
0.04
0.045
0.035
0.025
0.01
0.0
-0.01
-0.025
-0.035
-0.04
-0.035
-0.035
-0.04
-0.04
-0.035
-0.03
-0.045
-0.055
-0.055
-0.055
-0.055
-0.05
-0.035
-0.03
-0.03
-0.03
-0.03
-0.015
0.01
0.08
0.185
0.24
0.27
0.205
0.1
-0.015
-0.145
-0.195
-0.22
-0.165
-0.095
-0.045
0.0
-0.01
-0.025
-0.045
-0.065
-0.055
-0.045
-0.035
-0.03
-0.03
-0.025
-0.025
-0.02
-0.015
-0.01
-0.01
-0.01
-0.01
-0.015
-0.015
-0.015
-0.025
-0.025
-0.01
-0.005
-0.005
-0.005
0.0
0.0
-0.01
-0.01
0.0
0.0
0.0
0.01
0.025
0.025
0.02
0.03
0.045
0.05
0.05
0.06
0.07
0.095
0.115
0.125
0.135
0.145
0.155
0.155
0.16
0.18
0.19
0.19
0.195
0.23
0.25
0.23
0.22
0.23
0.225
0.21
0.19
0.18
0.16
0.13
0.11
0.105
0.09
0.065
0.055
0.05
0.04
0.02
0.015
0.01
0.005
0.005
0.005
0.005
0.005
0.005
0.0
0.0
-0.005
-0.005
-0.01
-0.01
-0.005
0.0
0.0
0.0
0.0
0.0
-0.005
-0.01
-0.015
-0.015
-0.005
0.0
0.005
0.01
0.01
0.01
0.01
0.01
0.01
0.005
0.005
0.005
0.01
0.015
0.015
0.015
0.005
0.0
0.0
0.0
-0.005
-0.005
0.0
-0.005
-0.015
-0.015
-0.01
0.0
0.015
0.035
0.055
0.05
0.05
0.055
0.06
0.035
0.015
0.01
0.005
-0.005
-0.015
-0.02
-0.03
-0.055
-0.065
-0.04
-0.035
-0.05
-0.055
-0.045
-0.05
-0.06
-0.06
-0.05
-0.06
-0.075
-0.07
-0.055
-0.055
-0.07
-0.065
-0.055
-0.055
-0.055
-0.035
-0.01
0.06
0.15
0.22
0.29
0.2
0.105
-0.03
-0.17
-0.215
-0.25
-0.18
-0.11
-0.045
0.0
-0.025
-0.055
-0.08
-0.095
-0.09
-0.08
-0.065
-0.055
-0.05
-0.045
-0.035
-0.03
-0.03
-0.03
-0.03
-0.03
-0.04
-0.04
-0.035
-0.035
-0.035
-0.025
-0.015
-0.015
-0.015
-0.015
-0.01
-0.01
-0.015
-0.015
-0.01
0.0
0.0
0.005
0.015
0.015
0.015
0.025
0.035
0.04
0.05
0.06
0.075
0.085
0.095
0.115
0.13
0.135
0.145
0.17
0.18
0.18
0.19
0.21
0.225
0.225
0.23
0.23
0.23
0.225
0.215
0.2
0.18
0.155
0.14
0.135
0.115
0.085
0.065
0.045
0.025
0.01
-0.005
-0.02
-0.02
-0.02
-0.03
-0.045
-0.045
-0.045
-0.05
-0.05
-0.045
-0.045
-0.055
-0.06
-0.05
-0.045
-0.05
-0.05
-0.05
-0.05
-0.05
-0.05
-0.05
-0.05
-0.06
-0.055
-0.04
-0.04
-0.055
-0.055
-0.05
-0.05
-0.055
-0.06
-0.06
-0.05
-0.035
-0.035
-0.035
-0.045
-0.055
-0.05
-0.045
-0.05
-0.055
-0.05
-0.045
-0.045
-0.05
-0.05
-0.05
-0.055
-0.06
-0.055
-0.045
-0.045
-0.035
0.0
0.015
0.005
0.005
0.01
0.005
-0.01
-0.02
-0.015
-0.02
-0.04
-0.045
-0.035
-0.05
-0.075
-0.085
-0.085
-0.085
-0.085
-0.09
-0.09
-0.09
-0.09
-0.09
-0.09
-0.08
-0.075
-0.085
-0.095
-0.09
-0.085
-0.095
-0.105
-0.08
-0.05
-0.035
-0.005
0.07
0.14
0.19
0.205
0.125
0.03
-0.09
-0.185
-0.22
-0.235
-0.205
-0.155
-0.07
-0.035
-0.045
-0.07
-0.1
-0.11
-0.1
-0.085
-0.065
-0.06
-0.06
-0.06
-0.06
-0.06
-0.065
-0.065
-0.06
-0.06
-0.06
-0.055
-0.055
-0.055
-0.06
-0.055
-0.055
-0.06
-0.065
-0.06
-0.05
-0.045
-0.045
-0.045
-0.045
-0.045
-0.04
-0.03
-0.02
-0.02
-0.015
-0.01
-0.005
0.0
0.005
0.005
0.01
0.02
0.02
0.015
0.035
0.07
0.075
0.07
0.085
0.105
0.105
0.095
0.115
0.14
0.14
0.14
0.145
0.15
0.15
0.145
0.135
0.125
0.11
0.09
0.07
0.055
0.055
0.05
0.03
0.015
0.01
0.005
0.0
-0.01
-0.015
-0.02
-0.02
-0.02
-0.02
-0.02
-0.03
-0.03
-0.03
-0.035
-0.045
-0.04
-0.03
-0.025
-0.02
-0.02
-0.02
-0.02
-0.025
-0.025
-0.02
-0.025
-0.03
-0.02
-0.01
-0.01
-0.01
-0.01
-0.01
-0.005
-0.005
-0.005
-0.005
0.0
0.01
0.01
0.01
0.01
0.005
-0.005
-0.01
-0.01
-0.01
-0.015
-0.015
-0.005
-0.005
-0.025
-0.025
-0.01
0.005
0.035
0.04
0.025
0.02
0.025
0.03
0.03
0.02
0.005
0.0
-0.015
-0.02
-0.025
-0.045
-0.06
-0.06
-0.06
-0.06
-0.065
-0.07
-0.075
-0.08
-0.085
-0.09
-0.09
-0.08
-0.075
-0.08
-0.08
-0.075
-0.075
-0.085
-0.095
-0.095
-0.085
-0.07
-0.045
-0.015
0.03
0.1
0.155
0.195
0.165
0.075
-0.01
-0.105
-0.18
-0.245
-0.22
-0.155
-0.09
-0.02
-0.03
-0.06
-0.095
-0.13
-0.11
-0.09
-0.08
-0.075
-0.065
-0.06
-0.045
-0.035
-0.06
-0.08
-0.06
-0.045
-0.06
-0.07
-0.055
-0.05
-0.065
-0.07
-0.065
-0.06
-0.06
-0.055
-0.045
-0.045
-0.045
-0.045
-0.05
-0.05
-0.045
-0.045
-0.045
-0.035
-0.01
-0.01
-0.02
-0.01
0.0
0.01
0.015
0.02
0.02
0.03
0.04
0.05
0.06
0.065
0.075
0.08
0.09
0.095
0.105
0.115
0.13
0.14
0.15
0.145
0.14
0.14
0.135
0.12
0.11
0.1
0.095
0.08
0.07
0.065
0.05
0.025
0.01
0.01
0.0
-0.025
-0.02
-0.005
-0.01
-0.025
-0.03
-0.025
-0.03
-0.045
-0.05
-0.05
-0.055
-0.055
-0.045
-0.03
